Time, Distance From Path, Angle From Next Waypoint
0.9841787, 0.04866901, 0
1.000409, 0.09595697, 0
1.017326, 0.1459542, 0
1.033607, 0.19472, 0
1.05048, 0.2459124, 0
1.067108, 0.296962, 0
1.084141, 0.3498861, 0
1.100272, 0.4005879, 0
1.117025, 0.4537731, 0
1.133619, 0.506898, 0
1.150182, 0.5602891, 0
1.168786, 0.5602891, 0
1.184935, 0.5602891, 0
1.200671, 0.5602891, 0
1.217473, 0.5602891, 0
1.233811, 0.5602891, 0
1.250469, 0.5602891, 0
1.267596, 0.5602891, 0
1.284635, 0.5602891, 0
1.300255, 0.5602891, 0
1.317336, 0.5602891, 0
1.33445, 0.5602891, 0
1.350513, 0.5602891, 0
1.366665, 0.5602891, 0
1.383493, 0.5602891, 0
1.400758, 0.5602891, 0
1.417262, 0.5602891, 0
1.434001, 0.5602891, 0
1.450356, 0.5602891, 0
1.467445, 0.5602891, 0
1.484611, 0.5602891, 0
1.503643, 0.5602891, 0
1.517127, 0.5602891, 0
1.533545, 0.5602891, 0
1.550472, 0.5602891, 0
1.566931, 0.5602891, 0
1.583489, 0.5602891, 0
1.599751, 0.5602891, 0
1.616712, 0.5602891, 0
1.633657, 0.5602891, 0
1.651103, 0.5602891, 0
1.666865, 0.5602891, 0
1.683664, 0.5602891, 0
1.70046, 0.5602891, 0
1.716746, 0.5602891, 0
1.733137, 0.5602891, 0
1.750602, 0.5602891, 0
1.766529, 0.5602891, 0
1.783374, 0.5602891, 0
1.799868, 0.5602891, 0
1.81749, 0.5602891, 0
1.833453, 0.5602891, 0
1.850332, 0.5936644, 0
1.866885, 0.6267073, 0
1.884697, 0.6625755, 0
1.899965, 0.6936132, 0
1.917116, 0.7287748, 0
1.933974, 0.763615, 0
1.952227, 0.8015389, 0
1.966612, 0.8315785, 0
1.983523, 0.8670067, 0
2.000721, 0.9031665, 0
2.017182, 0.9031665, 0
2.033177, 0.9031665, 0
2.050359, 0.9031665, 0
2.06727, 0.9031665, 0
2.083838, 0.9031665, 0
2.100481, 0.9031665, 0
2.116585, 0.9031665, 0
2.133171, 0.9031665, 0
2.150978, 0.9031665, 0
2.167146, 0.9031665, 0
2.184231, 0.9031665, 0
2.199949, 0.9031665, 0
2.216622, 0.9031665, 0
2.233053, 0.9031665, 0
2.250503, 0.9031665, 0
2.267181, 0.9031665, 0
2.283914, 0.9031665, 0
2.300419, 0.9031665, 0
2.317472, 0.9031665, 0
2.333766, 0.9031665, 0
2.35058, 0.9031665, 0
2.367204, 0.9031665, 0
2.383826, 0.9414219, 0
2.400821, 0.9806895, 0
2.417092, 1.018416, 0
2.433507, 1.05661, 0
2.449872, 1.094783, 0
2.4663, 1.133185, 0
2.48402, 1.174667, 0
2.500164, 1.212508, 0
2.516793, 1.251547, 0
2.533461, 1.290728, 0
2.550329, 1.330451, 0
2.566739, 1.369158, 0
2.584403, 1.410879, 0
2.600222, 1.448291, 0
2.617419, 1.489019, 0
2.632893, 1.525723, 0
2.65012, 1.566661, 0
2.666449, 1.605534, 0
2.684537, 1.648685, 0
2.700406, 1.68661, 0
2.717159, 1.726711, 0
2.733268, 1.765342, 0
2.750224, 1.806066, 0
2.766861, 1.846065, 0
2.78404, 1.887419, 0
2.801256, 1.928912, 0
2.817536, 1.968166, 0
2.833943, 2.007742, 0
2.850887, 2.048617, 0
2.866492, 2.086278, 0
2.883864, 2.128209, 0
2.900153, 2.167535, 0
2.916594, 2.207217, 0
2.932923, 2.24663, 0
2.950409, 2.28882, 0
2.966299, 2.327161, 0
2.983911, 2.369649, 0
3.000087, 2.408671, 0
3.016864, 2.449136, 0
3.032974, 2.48798, 0
3.050074, 2.529189, 0
3.066838, 2.569587, 0
3.083122, 2.608838, 0
3.099749, 2.648919, 0
3.117509, 2.691751, 0
3.133489, 2.73028, 0
3.149889, 2.769833, 0
3.166627, 2.810212, 0
3.183849, 2.851785, 0
3.200252, 2.891405, 0
3.218221, 2.93482, 0
3.233819, 2.972513, 0
3.250649, 3.013179, 0
3.267538, 3.053997, 0
3.283261, 3.092012, 0
3.300244, 3.133095, 0
3.317202, 3.174139, 0
3.333149, 3.212755, 0
3.350142, 3.253907, 0
3.366382, 3.293246, 0
3.383604, 3.33497, 0
3.400169, 3.375117, 0
3.416753, 3.415326, 0
3.433959, 3.457048, 0
3.450244, 3.496557, 0
3.466311, 3.535566, 0
3.483238, 3.576706, 0
3.499887, 3.576706, 0
3.518193, 3.576706, 0
3.533195, 3.576706, 0
3.551332, 3.576706, 0
3.56701, 3.576706, 0
3.583187, 3.576706, 0
3.601033, 3.576706, 0
3.617612, 3.576706, 0
3.633814, 3.576706, 0
3.650591, 3.53573, 0
3.667387, 3.494685, 0
3.683867, 3.454381, 0
3.700365, 3.41397, 0
3.717344, 3.37232, 0
3.733014, 3.333852, 0
3.750476, 3.290944, 0
3.767173, 3.249886, 0
3.78407, 3.208333, 0
3.799872, 3.169463, 0
3.816879, 3.127627, 0
3.833716, 3.08618, 0
3.850887, 3.043899, 0
3.867174, 3.003781, 0
3.883612, 2.963258, 0
3.89988, 2.923119, 0
3.916825, 2.881303, 0
3.9332, 2.840871, 0
3.949984, 2.799438, 0
3.967079, 2.757238, 0
3.983516, 2.716644, 0
3.999749, 2.676535, 0
4.01684, 2.634271, 0
4.03369, 2.592568, 0
4.049797, 2.552689, 0
4.066678, 2.514715, 0
4.083834, 2.48136, 0
4.100213, 2.450953, 0
4.11706, 2.419628, 0
4.133794, 2.388636, 0
4.150401, 2.357852, 0
4.166893, 2.327405, 0
4.183706, 2.296329, 0
4.200134, 2.26592, 0
4.21686, 2.23492, 0
4.233885, 2.203321, 0
4.249867, 2.17364, 0
4.26701, 2.141778, 0
4.283391, 2.111496, 0
4.299625, 2.082859, 0
4.316324, 2.04529, 0
4.333476, 2.00244, 0
4.349913, 1.961357, 0
4.366325, 1.961357, 0
4.382725, 1.961357, 0
4.4, 1.961357, 0
4.416377, 1.961357, 0
4.433375, 1.961357, 0
4.45008, 1.961357, 0
4.466856, 1.961357, 0
4.483371, 1.961357, 0
4.499522, 1.961357, 0
4.519562, 1.961357, 0
4.549708, 1.961357, 0
4.566549, 1.961357, 0
4.583158, 1.961357, 0
4.600049, 1.961357, 0
4.616388, 1.961357, 0
4.633244, 1.961357, 0
4.649713, 1.961357, 0
4.666827, 1.961357, 0
4.682974, 1.961357, 0
4.699752, 1.961357, 0
4.716173, 1.961357, 0
4.73355, 1.961357, 0
4.749572, 1.961357, 0
4.767044, 1.961357, 0
4.782727, 1.961357, 0
4.799721, 1.961357, 0
4.816062, 1.961357, 0
4.832811, 1.961357, 0
4.849669, 1.961357, 0
4.866125, 1.961357, 0
4.883202, 1.961357, 0
4.900672, 1.961357, 0
4.916667, 1.961357, 0
4.93346, 1.961357, 0
4.949531, 1.961357, 0
4.966768, 1.961357, 0
4.983036, 1.961357, 0
4.999608, 1.961357, 0
5.017252, 1.961357, 0
5.033513, 1.961357, 0
5.049817, 1.961357, 0
5.067184, 1.961357, 0
5.083189, 1.961357, 0
5.100037, 1.961357, 0
5.116323, 1.961357, 0
5.133313, 1.961357, 0
5.151488, 1.961357, 0
5.166756, 1.961357, 0
5.182663, 1.961357, 0
5.199708, 1.961357, 0
5.216263, 1.961357, 0
5.233237, 1.961357, 0
5.249432, 1.961357, 0
5.266247, 1.961357, 0
5.282747, 1.961357, 0
5.299989, 1.961357, 0
5.316261, 1.961357, 0
5.333241, 1.961357, 0
5.349526, 1.961357, 0
5.36675, 1.961357, 0
5.383369, 1.961357, 0
5.399661, 1.961357, 0
5.416027, 1.961357, 0
5.433247, 1.961357, 0
5.449254, 1.961357, 0
5.466616, 1.961357, 0
5.482834, 1.961357, 0
5.500342, 1.961357, 0
5.516136, 1.961357, 0
5.533143, 1.961357, 0
5.55002, 1.961357, 0
5.567101, 1.961357, 0
5.583397, 1.961357, 0
5.599769, 1.961357, 0
5.61675, 1.961357, 0
5.632901, 1.961357, 0
5.649497, 1.961357, 0
5.666692, 1.961357, 0
5.682967, 1.961357, 0
5.700114, 1.961357, 0
5.715974, 1.961357, 0
5.732888, 1.961357, 0
5.749847, 1.961357, 0
5.766591, 1.961357, 0
5.784348, 1.961357, 0
5.801309, 1.961357, 0
5.817363, 1.961357, 0
5.83416, 1.961357, 0
5.850339, 1.961357, 0
5.866536, 1.961357, 0
5.883025, 1.961357, 0
5.899379, 1.961357, 0
5.916619, 1.961357, 0
5.932753, 1.961357, 0
5.949641, 1.961357, 0
5.966551, 1.961357, 0
5.982943, 1.961357, 0
5.999775, 1.961357, 0
6.017016, 1.961357, 0
6.032952, 1.961357, 0
6.049644, 1.961357, 0
6.066474, 1.961357, 0
6.083086, 1.961357, 0
6.099459, 1.961357, 0
6.116844, 1.961357, 0
6.132802, 1.961357, 0
6.14973, 1.961357, 0
6.166539, 1.961357, 0
6.182941, 1.961357, 0
6.199471, 1.961357, 0
6.217586, 1.961357, 0
6.234968, 1.961357, 0
6.251195, 1.961357, 0
6.267274, 1.961357, 0
6.284448, 1.961357, 0
6.299748, 1.961357, 0
6.316522, 1.961357, 0
6.333436, 1.961357, 0
6.34942, 1.961357, 0
6.366574, 1.961357, 0
6.383371, 1.961357, 0
6.399661, 1.961357, 0
6.416651, 1.961357, 0
6.43295, 1.961357, 0
6.449991, 1.961357, 0
6.466927, 1.961357, 0
6.482755, 1.961357, 0
6.499979, 1.961357, 0
6.516671, 1.961357, 0
6.533266, 1.961357, 0
6.550374, 1.961357, 0
6.56652, 1.961357, 0
6.58324, 1.961357, 0
6.599487, 1.961357, 0
6.616195, 1.961357, 0
6.633133, 1.961357, 0
6.650178, 1.961357, 0
6.666547, 1.961357, 0
6.682905, 1.961357, 0
6.699216, 1.961357, 0
6.716577, 1.961357, 0
6.733119, 1.961357, 0
6.75006, 1.961357, 0
6.766469, 1.961357, 0
6.783205, 1.961357, 0
6.799273, 1.961357, 0
6.816318, 1.961357, 0
6.832871, 1.961357, 0
6.849963, 1.961357, 0
6.86666, 1.961357, 0
6.883029, 1.961357, 0
6.899539, 1.961357, 0
6.916705, 1.961357, 0
6.933677, 1.961357, 0
6.950028, 1.961357, 0
6.967067, 1.961357, 0
6.983355, 1.961357, 0
7.000311, 1.905612, 0
7.016499, 1.852412, 0
7.033557, 1.796411, 0
7.050278, 1.741563, 0
7.066295, 1.689036, 0
7.082493, 1.635911, 0
7.09978, 1.579165, 0
7.116433, 1.524491, 0
7.133616, 1.468122, 0
7.149625, 1.415644, 0
7.166293, 1.36099, 0
7.182647, 1.307263, 0
7.19964, 1.251274, 0
7.216542, 1.195463, 0
7.233179, 1.195463, 0
7.249824, 1.195463, 0
7.266201, 1.195463, 0
7.283239, 1.195463, 0
7.300401, 1.195463, 0
7.316575, 1.195463, 0
7.332721, 1.195463, 0
7.350118, 1.195463, 0
7.366254, 1.195463, 0
7.383498, 1.195463, 0
7.399357, 1.195463, 0
7.416821, 1.195463, 0
7.433393, 1.195463, 0
7.450013, 1.195463, 0
7.466785, 1.195463, 0
7.482766, 1.195463, 0
7.499777, 1.195463, 0
7.516077, 1.195463, 0
7.533252, 1.195463, 0
7.550047, 1.195463, 0
7.566171, 1.195463, 0
7.582821, 1.195463, 0
7.59942, 1.195463, 0
7.616873, 1.195463, 0
7.632802, 1.15313, 0
7.650023, 1.107552, 0
7.666501, 1.064125, 0
7.682741, 1.021543, 0
7.699352, 0.9782098, 0
7.716506, 0.9337837, 0
7.732646, 0.8923152, 0
7.74947, 0.8496021, 0
7.766922, 0.8057605, 0
7.782773, 0.7662862, 0
7.799212, 0.7256008, 0
7.816299, 0.6835632, 0
7.832732, 0.6433822, 0
7.849362, 0.602901, 0
7.866636, 0.5609375, 0
7.883401, 0.5202635, 0
7.899918, 0.4802898, 0
7.917099, 0.4388521, 0
7.932845, 0.4010235, 0
7.949421, 0.3613702, 0
7.966026, 0.3218557, 0
7.983125, 0.2814214, 0
7.999834, 0.2422547, 0
8.016051, 0.2046388, 0
8.036537, 0.1577086, 0
8.049116, 0.1292305, 0
8.066133, 0.09122029, 0
8.083831, 0.05220127, 0
8.099928, 0.0171331, 0
8.116614, 0.0187177, 0
8.13266, 0.05260034, 0
8.149418, 0.08731333, 0
8.166138, 0.121189, 0
8.182762, 0.1537843, 0
8.199447, 0.1849019, 0
8.216184, 0.1849019, 0
8.232663, 0.1849019, 0
8.250652, 0.1849019, 0
8.266894, 0.1849019, 0
8.283319, 0.1849019, 0
8.300536, 0.1849019, 0
8.316586, 0.1849019, 0
8.33315, 0.1849019, 0
8.34969, 0.1849019, 0
8.366459, 0.1849019, 0
8.382734, 0.1849019, 0
8.399863, 0.1849019, 0
8.416098, 0.1849019, 0
8.432739, 0.1849019, 0
8.449438, 0.1849019, 0
8.466783, 0.1849019, 0
8.48278, 0.1849019, 0
8.499576, 0.1849019, 0
8.515903, 0.1849019, 0
8.53554, 0.1849019, 0
8.566826, 0.1849019, 0
8.582951, 0.1849019, 0
8.59991, 0.1849019, 0
8.615902, 0.1924609, 0
8.632679, 0.2007189, 0
8.649427, 0.2092295, 0
8.665914, 0.2178885, 0
8.682652, 0.2269882, 0
8.699488, 0.2364908, 0
8.716787, 0.2464187, 0
8.73349, 0.2560367, 0
8.749928, 0.2654683, 0
8.76641, 0.2749137, 0
8.783331, 0.2846127, 0
8.799521, 0.2939022, 0
8.816632, 0.3037728, 0
8.833354, 0.3134513, 0
8.849725, 0.3229429, 0
8.8659, 0.3323213, 0
8.883143, 0.3423395, 0
8.899414, 0.3518237, 0
8.916194, 0.3616588, 0
8.93326, 0.3716974, 0
8.949894, 0.3815306, 0
8.966211, 0.3911835, 0
8.982503, 0.4008307, 0
8.999532, 0.4109486, 0
9.016259, 0.4209817, 0
9.03319, 0.4312578, 0
9.04917, 0.441049, 0
9.06623, 0.4515379, 0
9.082711, 0.4616663, 0
9.099915, 0.4722632, 0
9.116043, 0.482191, 0
9.132758, 0.4924491, 0
9.149534, 0.5026983, 0
9.166481, 0.5129708, 0
9.183547, 0.5232167, 0
9.199783, 0.5328787, 0
9.216315, 0.542595, 0
9.232861, 0.5522085, 0
9.249917, 0.5620373, 0
9.266939, 0.5717435, 0
9.282825, 0.5806958, 0
9.299823, 0.5901747, 0
9.315765, 0.5989689, 0
9.332454, 0.6080819, 0
9.349747, 0.6174453, 0
9.366313, 0.6174453, 0
9.383024, 0.6174453, 0
9.399431, 0.6174453, 0
9.415896, 0.6174453, 0
9.43273, 0.6174453, 0
9.449759, 0.6174453, 0
9.466688, 0.5503543, 0
9.482553, 0.4874881, 0
9.499376, 0.4208309, 0
9.516865, 0.3515426, 0
9.534655, 0.2810599, 0
9.549403, 0.222623, 0
9.566048, 0.1566699, 0
9.582773, 0.09039212, 0
9.599928, 0.02241264, 0
9.616587, 0.04360747, 0
9.633246, 0.1096388, 0
9.64983, 0.1753812, 0
9.66599, 0.2394621, 0
9.683238, 0.3078814, 0
9.699658, 0.3078814, 0
9.7167, 0.3078814, 0
9.733283, 0.3078814, 0
9.749712, 0.3078814, 0
9.765878, 0.3078814, 0
9.782917, 0.3078814, 0
9.800138, 0.3078814, 0
9.8165, 0.3078814, 0
9.832805, 0.3078814, 0
9.849576, 0.3078814, 0
9.866453, 0.3078814, 0
9.882553, 0.3078814, 0
9.899954, 0.3078814, 0
9.916676, 0.3078814, 0
9.93257, 0.3078814, 0
9.949173, 0.3078814, 0
9.965831, 0.3078814, 0
9.982525, 0.3078814, 0
10.00013, 0.3044001, 0
10.0157, 0.3014597, 0
10.03218, 0.2984619, 0
10.04928, 0.2954645, 0
10.06589, 0.2926691, 0
10.08277, 0.2899605, 0
10.0995, 0.2873816, 0
10.11595, 0.2849225, 0
10.13315, 0.2824294, 0
10.15022, 0.2800928, 0
10.16607, 0.2780287, 0
10.18299, 0.2759373, 0
10.20002, 0.2739059, 0
10.21609, 0.2720495, 0
10.23328, 0.2700961, 0
10.25003, 0.26821, 0
10.26645, 0.2663731, 0
10.28276, 0.264548, 0
10.29907, 0.2627198, 0
10.31612, 0.2608013, 0
10.33279, 0.2588983, 0
10.3492, 0.2569637, 0
10.36638, 0.2549373, 0
10.38297, 0.2549373, 0
10.39955, 0.2549373, 0
10.41605, 0.2549373, 0
10.43272, 0.2549373, 0
10.45059, 0.2549373, 0
10.46612, 0.2549373, 0
10.48239, 0.2549373, 0
10.49963, 0.2549373, 0
10.5161, 0.2549373, 0
10.53284, 0.2549373, 0
10.54957, 0.2549373, 0
10.56651, 0.2549373, 0
10.58245, 0.2549373, 0
10.59932, 0.2549373, 0
10.61569, 0.2549373, 0
10.63285, 0.2549373, 0
10.64966, 0.2549373, 0
10.66642, 0.2549373, 0
10.6825, 0.2549373, 0
10.69933, 0.2549373, 0
10.71636, 0.2549373, 0
10.7329, 0.2555974, 0
10.74924, 0.2560889, 0
10.76583, 0.2564144, 0
10.78314, 0.2566009, 0
10.79983, 0.2566535, 0
10.81631, 0.2565683, 0
10.83299, 0.2563508, 0
10.8499, 0.2559999, 0
10.86699, 0.2555404, 0
10.88279, 0.2550147, 0
10.89967, 0.2543779, 0
10.9163, 0.2536961, 0
10.93226, 0.2529914, 0
10.94938, 0.2521572, 0
10.96578, 0.2512915, 0
10.98319, 0.2503084, 0
10.9996, 0.2493375, 0
11.01588, 0.2483223, 0
11.03268, 0.2472142, 0
11.04957, 0.2459965, 0
11.06687, 0.244624, 0
11.08342, 0.2431749, 0
11.09973, 0.2415976, 0
11.11608, 0.2398829, 0
11.1323, 0.2380396, 0
11.14919, 0.2360296, 0
11.16646, 0.2338825, 0
11.18257, 0.2318, 0
11.19922, 0.2295356, 0
11.21619, 0.2271541, 0
11.23267, 0.2247943, 0
11.24903, 0.2224114, 0
11.26616, 0.2198703, 0
11.28298, 0.2173344, 0
11.30003, 0.2147359, 0
11.31585, 0.2123156, 0
11.33254, 0.2097963, 0
11.34972, 0.2072149, 0
11.36624, 0.2047551, 0
11.38275, 0.2023, 0
11.39902, 0.1998902, 0
11.41642, 0.1973128, 0
11.43266, 0.1973128, 0
11.44936, 0.1973128, 0
11.46642, 0.1973128, 0
11.48304, 0.1973128, 0
11.50046, 0.1973128, 0
11.51686, 0.1973128, 0
11.53286, 0.1973128, 0
11.54959, 0.1973128, 0
11.56671, 0.1973128, 0
11.58255, 0.1973128, 0
11.59943, 0.1973128, 0
11.61583, 0.1973128, 0
11.63258, 0.1973128, 0
11.64943, 0.1973128, 0
11.66627, 0.1973128, 0
11.68248, 0.1973128, 0
11.69966, 0.1973128, 0
11.71588, 0.1973128, 0
11.73311, 0.1973128, 0
11.74916, 0.1973128, 0
11.76625, 0.1973128, 0
11.78266, 0.1951257, 0
11.79949, 0.1928879, 0
11.81614, 0.1906574, 0
11.83266, 0.1884132, 0
11.849, 0.1861424, 0
11.8658, 0.183744, 0
11.88252, 0.1813083, 0
11.90018, 0.1786992, 0
11.91622, 0.1763061, 0
11.93331, 0.1737746, 0
11.95009, 0.1713067, 0
11.96624, 0.1689404, 0
11.98259, 0.166552, 0
11.99952, 0.1640751, 0
12.01605, 0.1616474, 0
12.03237, 0.1592089, 0
12.04981, 0.156557, 0
12.06716, 0.1538654, 0
12.08266, 0.1514255, 0
12.09976, 0.1486811, 0
12.11675, 0.1458965, 0
12.13237, 0.1432846, 0
12.14939, 0.1403906, 0
12.166, 0.1375108, 0
12.18288, 0.134553, 0
12.19905, 0.1316722, 0
12.21589, 0.1286287, 0
12.23322, 0.1254324, 0
12.24928, 0.122396, 0
12.26654, 0.1190936, 0
12.28284, 0.1159138, 0
12.29981, 0.1125299, 0
12.31627, 0.1091608, 0
12.33292, 0.1057394, 0
12.3496, 0.1022926, 0
12.36662, 0.09877457, 0
12.38294, 0.09539133, 0
12.39988, 0.09190592, 0
12.41601, 0.08860235, 0
12.43276, 0.08519857, 0
12.44934, 0.08185315, 0
12.46651, 0.07842045, 0
12.48275, 0.07519547, 0
12.49949, 0.07185587, 0
12.51685, 1.363127, 0
12.53352, 1.3036, 0
12.55225, 1.236713, 0
12.58255, 1.128449, 0
12.5993, 1.068623, 0
12.61585, 1.009481, 0
12.63294, 0.948443, 0
12.64923, 0.8902484, 0
12.66599, 0.8303955, 0
12.68263, 0.7709644, 0
12.69958, 0.7104563, 0
12.71687, 0.6487216, 0
12.73316, 0.5905804, 0
12.74995, 0.5305904, 0
12.76677, 0.4705053, 0
12.78309, 0.4122291, 0
12.79964, 0.3530982, 0
12.81582, 0.2952974, 0
12.83274, 0.2348536, 0
12.84982, 0.1738159, 0
12.86604, 0.1158245, 0
12.88279, 0.05585668, 0
12.89962, 0.004379229, 0
12.91634, 0.06430198, 0
12.93365, 0.1264137, 0
12.94969, 0.1839783, 0
12.96622, 0.2433478, 0
12.98229, 0.3011381, 0
12.9987, 0.3602006, 0
13.01641, 0.4239776, 0
13.03244, 0.4817727, 0
13.04929, 0.5425552, 0
13.06624, 0.6037567, 0
13.08268, 0.6631676, 0
13.09925, 0.7231153, 0
13.11552, 0.7820027, 0
13.13307, 0.8455848, 0
13.1496, 0.9055356, 0
13.16596, 0.9649433, 0
13.18217, 1.023839, 0
13.19942, 1.086566, 0
13.21595, 1.14668, 0
13.23219, 1.205762, 0
13.24887, 1.266474, 0
13.26578, 1.328011, 0
13.2823, 1.388144, 0
13.29959, 1.451086, 0
13.31588, 1.510385, 0
13.33309, 1.57306, 0
13.35006, 1.634859, 0
13.36611, 1.693292, 0
13.38258, 1.753265, 0
13.39994, 1.816463, 0
13.41565, 1.873685, 0
13.43337, 1.938185, 0
13.44921, 1.995813, 0
13.46607, 2.057199, 0
13.48213, 2.115628, 0
13.49963, 2.179301, 0
13.51667, 2.241269, 0
13.53287, 2.300195, 0
13.55064, 2.364837, 0
13.56617, 2.421351, 0
13.58225, 2.421351, 0
13.59919, 2.421351, 0
13.61575, 2.421351, 0
13.63291, 2.421351, 0
13.64906, 2.421351, 0
13.66602, 2.421351, 0
13.6823, 2.421351, 0
13.69897, 2.421351, 0
13.71588, 2.421351, 0
13.73248, 2.421351, 0
13.75018, 2.421351, 0
13.76635, 2.421351, 0
13.78282, 2.421351, 0
13.79972, 2.421351, 0
13.81624, 2.421351, 0
13.83301, 2.421351, 0
13.8491, 2.421351, 0
13.86594, 2.421351, 0
13.88227, 2.421351, 0
13.89936, 2.421351, 0
13.91574, 2.421351, 0
13.93276, 2.421351, 0
13.94939, 2.421351, 0
13.96623, 2.421351, 0
13.98227, 2.421351, 0
13.99956, 2.421351, 0
14.01568, 2.421351, 0
14.03283, 2.421351, 0
14.04959, 2.421351, 0
14.06586, 2.421351, 0
14.08214, 2.421351, 0
14.09916, 2.421351, 0
14.11558, 2.421351, 0
14.13231, 2.421351, 0
14.14951, 2.421351, 0
14.16566, 2.421351, 0
14.18226, 2.421351, 0
14.19918, 2.421351, 0
14.21568, 2.421351, 0
14.23275, 2.421351, 0
14.24948, 2.421351, 0
14.26614, 2.421351, 0
14.28251, 2.421351, 0
14.30049, 2.421351, 0
14.31576, 2.421351, 0
14.33269, 2.421351, 0
14.34922, 2.421351, 0
14.36614, 2.421351, 0
14.38262, 2.421351, 0
14.39969, 2.421351, 0
14.41534, 2.421351, 0
14.43302, 2.421351, 0
14.44907, 2.421351, 0
14.46679, 2.421351, 0
14.48216, 2.421351, 0
14.49976, 2.421351, 0
14.51589, 2.421351, 0
14.53221, 2.421351, 0
14.54914, 2.421351, 0
14.56637, 2.421351, 0
14.58228, 2.421351, 0
14.59908, 2.421351, 0
14.61536, 2.421351, 0
14.63338, 2.421351, 0
14.6492, 2.421351, 0
14.66584, 2.421351, 0
14.68251, 2.421351, 0
14.69971, 2.421351, 0
14.71573, 2.421351, 0
14.73257, 2.421351, 0
14.74962, 2.421351, 0
14.76621, 2.421351, 0
14.7825, 2.421351, 0
14.79947, 2.421351, 0
14.81589, 2.421351, 0
14.83299, 2.421351, 0
14.84913, 2.421351, 0
14.86676, 2.421351, 0
14.88264, 2.421351, 0
14.89898, 2.421351, 0
14.91562, 2.421351, 0
14.93249, 2.421351, 0
14.94905, 2.421351, 0
14.96608, 2.421351, 0
14.98221, 2.421351, 0
14.99913, 2.421351, 0
15.01551, 2.421351, 0
15.03239, 2.421351, 0
15.04897, 2.421351, 0
15.0661, 2.421351, 0
15.08224, 2.421351, 0
15.09966, 2.421351, 0
15.11626, 2.421351, 0
15.13231, 2.421351, 0
15.14914, 2.421351, 0
15.16584, 2.421351, 0
15.1827, 2.421351, 0
15.19953, 2.421351, 0
15.21583, 2.421351, 0
15.23256, 2.421351, 0
15.24884, 2.421351, 0
15.26642, 2.421351, 0
15.28237, 2.421351, 0
15.29954, 2.421351, 0
15.3158, 2.421351, 0
15.33231, 2.421351, 0
15.34875, 2.421351, 0
15.36594, 2.421351, 0
15.3822, 2.421351, 0
15.3996, 2.421351, 0
15.41556, 2.421351, 0
15.43372, 2.397678, 0
15.44898, 2.377967, 0
15.46568, 2.356586, 0
15.48215, 2.335638, 0
15.49914, 2.314171, 0
15.51566, 2.293363, 0
15.53217, 2.272693, 0
15.54908, 2.251625, 0
15.56561, 2.231178, 0
15.58214, 2.210939, 0
15.5996, 2.189761, 0
15.61624, 2.169747, 0
15.63335, 2.149347, 0
15.65024, 2.149347, 0
15.66615, 2.149347, 0
15.6829, 2.149347, 0
15.69938, 2.149347, 0
15.71642, 2.149347, 0
15.73221, 2.149347, 0
15.74918, 2.149347, 0
15.76618, 2.149347, 0
15.78265, 2.149347, 0
15.79899, 2.149347, 0
15.81575, 2.149347, 0
15.83258, 2.149347, 0
15.84926, 2.149347, 0
15.86667, 2.149347, 0
15.88186, 2.149347, 0
15.89928, 2.149347, 0
15.9156, 2.149347, 0
